* Measurement data saved by REW V5.10
* Source: Input device not selected, no input selected, Left channel, volume: no control
* Format:  256k Log Swept Sine, 1 sweep at -3.0 dB FS
* Dated: Jan 12, 2016 6:25:29 PM
* Sense Resistor: 100.0
* Lead resistance: 0.000
* Calibration factor: 1.0060
* Note: 
* Measurement: TW Z
* Smoothing: 1/12 octave
* Frequency Step: 1/48 octave
* Start Frequency: 500.7 Hz
*
* Freq(Hz)	Z(Ohms)	Phase(degrees)
500.686	5.911	15.889
507.968	5.929	15.998
515.357	5.951	16.131
522.853	5.977	16.277
530.458	6.005	16.430
538.174	6.035	16.589
546.002	6.067	16.750
553.943	6.101	16.912
562.001	6.136	17.074
570.175	6.172	17.235
578.469	6.210	17.393
586.883	6.250	17.549
595.419	6.292	17.702
604.080	6.335	17.851
612.866	6.380	17.996
621.780	6.427	18.135
630.824	6.476	18.269
640.000	6.527	18.397
649.309	6.580	18.518
658.753	6.635	18.632
668.335	6.693	18.737
678.056	6.753	18.833
687.919	6.815	18.920
697.925	6.881	18.994
708.076	6.949	19.056
718.376	7.020	19.104
728.825	7.095	19.135
739.426	7.172	19.149
750.181	7.253	19.144
761.093	7.337	19.118
772.163	7.425	19.070
783.394	7.516	18.998
794.789	7.611	18.900
806.349	7.709	18.773
818.078	7.812	18.615
829.977	7.918	18.422
842.050	8.028	18.192
854.297	8.142	17.920
866.724	8.260	17.605
879.330	8.380	17.243
892.120	8.505	16.832
905.097	8.632	16.367
918.262	8.761	15.846
931.618	8.892	15.264
945.169	9.024	14.617
958.917	9.156	13.905
972.864	9.287	13.126
987.015	9.416	12.280
1001.371	9.541	11.365
1015.937	9.661	10.378
1030.714	9.775	9.323
1045.706	9.880	8.205
1060.916	9.977	7.024
1076.347	10.062	5.782
1092.003	10.135	4.486
1107.887	10.192	3.142
1124.001	10.234	1.758
1140.350	10.258	0.343
1156.937	10.264	-1.092
1173.765	10.252	-2.537
1190.838	10.219	-3.976
1208.159	10.169	-5.398
1225.732	10.101	-6.794
1243.561	10.016	-8.157
1261.649	9.916	-9.474
1280.000	9.801	-10.734
1298.618	9.674	-11.932
1317.507	9.536	-13.058
1336.670	9.389	-14.108
1356.113	9.235	-15.079
1375.838	9.076	-15.960
1395.850	8.914	-16.753
1416.153	8.751	-17.457
1436.751	8.588	-18.068
1457.649	8.427	-18.586
1478.851	8.272	-19.012
1500.362	8.126	-19.366
1522.185	7.988	-19.686
1544.326	7.854	-19.997
1566.789	7.721	-20.278
1589.578	7.588	-20.508
1612.699	7.456	-20.679
1636.156	7.329	-20.791
1659.955	7.205	-20.851
1684.099	7.086	-20.861
1708.595	6.972	-20.822
1733.447	6.862	-20.742
1758.661	6.758	-20.618
1784.241	6.659	-20.455
1810.193	6.565	-20.257
1836.523	6.479	-20.036
1863.236	6.398	-19.810
1890.338	6.320	-19.589
1917.833	6.244	-19.359
1945.729	6.170	-19.108
1974.030	6.099	-18.833
2002.743	6.030	-18.534
2031.873	5.964	-18.212
2061.428	5.902	-17.873
2091.412	5.842	-17.517
2121.832	5.786	-17.148
2152.695	5.733	-16.767
2184.007	5.684	-16.376
2215.774	5.636	-15.976
2248.003	5.592	-15.568
2280.701	5.550	-15.153
2313.874	5.511	-14.732
2347.530	5.475	-14.307
2381.676	5.441	-13.882
2416.318	5.410	-13.458
2451.464	5.380	-13.036
2487.122	5.353	-12.619
2523.298	5.327	-12.204
2560.000	5.303	-11.793
2597.236	5.280	-11.386
2635.014	5.259	-10.982
2673.341	5.239	-10.583
2712.226	5.221	-10.186
2751.676	5.203	-9.794
2791.700	5.186	-9.404
2832.306	5.171	-9.017
2873.503	5.157	-8.636
2915.299	5.143	-8.258
2957.703	5.131	-7.884
3000.724	5.119	-7.514
3044.370	5.108	-7.149
3088.652	5.098	-6.789
3133.577	5.088	-6.432
3179.156	5.079	-6.078
3225.398	5.071	-5.727
3272.312	5.063	-5.379
3319.909	5.056	-5.035
3368.198	5.049	-4.694
3417.190	5.043	-4.356
3466.894	5.037	-4.018
3517.321	5.031	-3.683
3568.482	5.026	-3.350
3620.387	5.022	-3.019
3673.046	5.018	-2.689
3726.472	5.014	-2.361
3780.675	5.011	-2.033
3835.666	5.008	-1.706
3891.457	5.006	-1.380
3948.060	5.004	-1.055
4005.486	5.003	-0.732
4063.747	5.002	-0.410
4122.855	5.001	-0.089
4182.824	5.002	0.230
4243.664	5.002	0.546
4305.390	5.003	0.861
4368.013	5.004	1.176
4431.547	5.006	1.491
4496.005	5.008	1.805
4561.401	5.010	2.117
4627.749	5.014	2.428
4695.061	5.017	2.738
4763.352	5.021	3.047
4832.637	5.025	3.354
4902.929	5.031	3.661
4974.244	5.036	3.966
5046.596	5.043	4.270
5120.000	5.049	4.571
5194.472	5.057	4.870
5270.027	5.065	5.166
5346.682	5.075	5.458
5424.451	5.085	5.742
5503.352	5.095	6.017
5583.399	5.107	6.278
5664.612	5.119	6.524
5747.006	5.131	6.753
5830.598	5.142	6.966
5915.406	5.151	7.169
6001.447	5.160	7.370
6088.740	5.167	7.575
6177.303	5.173	7.791
6267.154	5.179	8.020
6358.312	5.185	8.259
6450.796	5.193	8.506
6544.625	5.201	8.755
6639.818	5.209	9.004
6736.397	5.219	9.250
6834.380	5.229	9.491
6933.789	5.239	9.725
7034.643	5.249	9.956
7136.964	5.259	10.185
7240.773	5.269	10.413
7346.093	5.279	10.642
7452.944	5.289	10.871
7561.350	5.299	11.100
7671.332	5.310	11.330
7782.915	5.320	11.558
7896.120	5.331	11.784
8010.971	5.342	12.007
8127.493	5.353	12.227
8245.711	5.363	12.448
8365.647	5.372	12.673
8487.328	5.382	12.905
8610.779	5.391	13.147
8736.026	5.401	13.398
8863.095	5.412	13.654
8992.011	5.424	13.915
9122.803	5.436	14.177
9255.497	5.449	14.439
9390.121	5.463	14.699
9526.704	5.478	14.957
9665.273	5.493	15.214
9805.857	5.508	15.468
9948.487	5.524	15.719
10093.191	5.540	15.968
10240.000	5.557	16.216
10388.944	5.574	16.462
10540.055	5.591	16.706
10693.363	5.609	16.949
10848.902	5.627	17.191
11006.703	5.645	17.431
11166.799	5.663	17.670
11329.224	5.682	17.908
11494.012	5.701	18.145
11661.195	5.721	18.382
11830.812	5.741	18.617
12002.895	5.761	18.851
12177.480	5.782	19.083
12354.606	5.803	19.314
12534.309	5.824	19.544
12716.624	5.846	19.773
12901.592	5.868	20.000
13089.250	5.890	20.226
13279.637	5.913	20.449
13472.794	5.936	20.670
13668.760	5.959	20.890
13867.577	5.982	21.110
14069.285	6.005	21.332
14273.928	6.029	21.554
14481.547	6.053	21.776
14692.186	6.078	21.998
14905.889	6.104	22.219
15122.700	6.129	22.438
15342.664	6.156	22.656
15565.829	6.182	22.872
15792.239	6.209	23.085
16021.942	6.237	23.294
16254.986	6.265	23.501
16491.422	6.293	23.702
16731.295	6.321	23.898
16974.656	6.349	24.099
17221.559	6.377	24.301
17472.053	6.405	24.503
17726.189	6.434	24.705
17984.021	6.463	24.906
18245.605	6.492	25.104
18510.994	6.521	25.298
18780.242	6.549	25.483
19053.408	6.575	25.657
19330.547	6.599	25.812
19611.715	6.619	25.935
19896.975	6.630	26.005
