* Measurement data saved by REW V5.10
* Source: Input device not selected, no input selected, Left channel, volume: no control
* Format:  256k Log Swept Sine, 1 sweep at -3.0 dB FS
* Dated: Jan 13, 2016 7:02:41 PM
* REW Settings:
*  C-weighting compensation: Off
*  Target level: 75.0 dB
* Note: 
* Measurement: WF SPL
* Smoothing: 1/12 octave
* Frequency Step: 1/48 octave
* Start Frequency: 81.2 Hz
*
* Freq(Hz)	SPL(dB)	Phase(degrees)
81.164	66.320	-28.314
82.344	66.565	-29.837
83.542	66.713	-31.948
84.757	66.705	-33.863
85.990	66.618	-34.614
87.241	66.827	-34.928
88.510	67.131	-37.286
89.797	67.268	-40.051
91.103	67.323	-41.536
92.428	67.606	-41.720
93.773	68.152	-42.952
95.137	68.789	-46.338
96.520	69.310	-51.696
97.924	69.621	-58.402
99.349	69.589	-64.814
100.794	69.322	-69.742
102.260	68.931	-72.571
103.747	68.615	-74.395
105.256	68.347	-76.224
106.787	68.102	-79.007
108.340	67.725	-82.045
109.916	67.255	-84.506
111.515	66.699	-85.671
113.137	66.163	-85.519
114.783	65.677	-84.843
116.452	65.260	-84.016
118.146	64.886	-82.224
119.865	64.831	-79.580
121.608	64.964	-76.867
123.377	65.082	-74.431
125.171	65.188	-71.081
126.992	65.465	-67.544
128.839	65.930	-64.816
130.713	66.571	-63.655
132.615	67.191	-63.806
134.543	67.777	-64.239
136.500	68.379	-65.503
138.486	68.943	-67.996
140.500	69.374	-71.990
142.544	69.467	-76.124
144.617	69.330	-78.085
146.721	69.165	-77.657
148.855	69.290	-75.385
151.020	69.931	-74.660
153.217	70.638	-76.803
155.445	71.248	-81.108
157.706	71.526	-86.392
160.000	71.592	-90.316
162.327	71.716	-93.289
164.688	71.844	-95.963
167.084	72.025	-98.688
169.514	72.178	-102.828
171.980	72.062	-107.154
174.481	71.752	-109.717
177.019	71.493	-111.055
179.594	71.334	-111.610
182.206	71.422	-111.664
184.856	71.767	-111.953
187.545	72.278	-115.164
190.273	72.460	-120.378
193.041	72.321	-124.675
195.849	72.149	-128.060
198.697	71.926	-131.937
201.587	71.510	-134.950
204.520	71.012	-136.367
207.494	70.686	-136.009
210.512	70.674	-136.476
213.574	70.622	-138.161
216.681	70.496	-140.312
219.833	70.342	-142.315
223.030	70.157	-144.833
226.274	69.808	-147.040
229.565	69.447	-148.705
232.905	68.918	-150.253
236.292	68.307	-149.400
239.729	68.066	-148.368
243.216	67.806	-149.289
246.754	67.255	-150.055
250.343	66.490	-149.341
253.984	65.502	-149.919
257.678	64.381	-147.933
261.426	62.872	-141.218
265.229	62.065	-125.169
269.087	62.417	-111.643
273.001	63.656	-101.333
276.972	65.694	-96.679
281.000	67.557	-96.965
285.088	68.963	-99.833
289.234	70.264	-104.315
293.441	71.126	-110.442
297.710	71.744	-116.514
302.040	72.094	-123.484
306.433	71.983	-129.781
310.890	71.602	-134.824
315.412	71.136	-137.394
320.000	70.768	-139.694
324.655	70.191	-140.276
329.377	69.985	-137.742
334.168	70.387	-136.810
339.028	70.692	-138.563
343.959	70.630	-140.270
348.962	70.395	-139.486
354.038	70.190	-138.046
359.188	70.490	-138.171
364.412	70.685	-140.441
369.713	70.881	-142.945
375.090	70.957	-146.296
380.546	70.820	-149.456
386.081	70.667	-152.119
391.697	70.297	-155.458
397.395	69.636	-156.443
403.175	69.171	-155.918
409.039	68.665	-155.753
414.989	68.190	-153.100
421.025	67.956	-149.415
427.149	68.173	-145.151
433.362	68.730	-144.732
439.665	69.013	-145.213
446.060	69.026	-146.146
452.548	68.672	-144.398
459.131	68.630	-140.016
465.809	68.961	-138.944
472.584	69.217	-138.182
479.458	69.566	-138.363
486.432	69.801	-139.604
493.507	70.021	-140.492
500.686	70.262	-140.850
507.968	70.614	-142.102
515.357	70.846	-144.164
522.853	71.057	-146.264
530.458	71.193	-150.097
538.174	71.017	-153.545
546.002	70.607	-156.965
553.943	70.212	-157.622
562.001	69.938	-157.777
570.175	69.623	-157.765
578.469	69.346	-157.044
586.883	69.157	-156.934
595.419	68.673	-155.949
604.080	68.130	-153.606
612.866	67.775	-148.514
621.780	68.294	-141.677
630.824	68.930	-138.925
640.000	69.533	-137.322
649.309	70.346	-135.746
658.753	70.946	-137.159
668.335	71.368	-137.680
678.056	72.090	-140.118
687.919	72.491	-145.344
697.925	72.521	-149.425
708.076	72.434	-153.453
718.376	72.196	-156.876
728.825	71.649	-159.055
739.426	71.180	-159.014
750.181	70.890	-157.914
761.093	70.717	-157.319
772.163	70.401	-155.787
783.394	70.554	-152.981
794.789	70.653	-152.483
806.349	70.833	-150.277
818.078	71.172	-149.737
829.977	71.625	-148.556
842.050	72.249	-149.686
854.297	72.691	-152.583
866.724	73.106	-155.233
879.330	73.431	-159.686
892.120	73.414	-165.080
905.097	73.160	-169.611
918.262	72.636	-174.308
931.618	71.849	-176.511
945.169	71.014	-176.210
958.917	70.383	-174.613
972.864	69.872	-171.473
987.015	69.735	-168.696
1001.371	69.721	-165.060
1015.937	69.861	-163.815
1030.714	70.078	-163.131
1045.706	70.128	-163.841
1060.916	70.023	-163.939
1076.347	69.832	-163.166
1092.003	69.733	-160.757
1107.887	69.859	-158.572
1124.001	70.062	-157.454
1140.350	70.244	-155.829
1156.937	70.425	-154.238
1173.765	71.012	-152.853
1190.838	71.691	-154.112
1208.159	72.090	-157.439
1225.732	72.282	-161.598
1243.561	72.045	-165.666
1261.649	71.579	-168.520
1280.000	70.871	-168.925
1298.618	70.223	-165.980
1317.507	70.266	-160.885
1336.670	70.829	-159.527
1356.113	71.024	-161.287
1375.838	70.821	-161.975
1395.850	70.641	-160.477
1416.153	70.562	-158.980
1436.751	70.502	-155.843
1457.649	70.917	-150.192
1478.851	71.880	-148.663
1500.362	72.733	-150.245
1522.185	73.319	-152.881
1544.326	73.791	-156.420
1566.789	73.941	-160.367
1589.578	73.959	-163.250
1612.699	73.932	-165.548
1636.156	73.942	-167.279
1659.955	74.069	-169.548
1684.099	74.157	-172.039
1708.595	74.187	-175.276
1733.447	74.113	-179.131
1758.661	73.750	176.731
1784.241	73.117	173.682
1810.193	72.487	173.749
1836.523	72.181	174.815
1863.236	72.091	175.596
1890.338	71.985	175.008
1917.833	71.707	173.573
1945.729	71.278	173.260
1974.030	70.969	173.774
2002.743	70.586	174.543
2031.873	70.246	176.621
2061.428	70.185	178.762
2091.412	70.137	179.665
2121.832	69.903	-179.235
2152.695	69.720	-175.790
2184.007	70.147	-171.976
2215.774	70.754	-172.113
2248.003	71.032	-174.029
2280.701	71.022	-175.100
2313.874	71.030	-175.146
2347.530	71.263	-174.383
2381.676	71.648	-176.464
2416.318	71.704	-179.749
2451.464	71.523	177.422
2487.122	71.197	175.743
2523.298	70.871	174.642
2560.000	70.468	173.919
2597.236	70.003	174.440
2635.014	69.673	176.433
2673.341	69.514	178.851
2712.226	69.531	-178.712
2751.676	69.704	-177.138
2791.700	69.854	-176.619
2832.306	69.906	-176.072
2873.503	70.010	-174.650
2915.299	70.312	-173.422
2957.703	70.667	-174.506
3000.724	70.732	-175.853
3044.370	70.782	-176.021
3088.652	71.045	-176.407
3133.577	71.243	-178.474
3179.156	71.170	178.989
3225.398	70.955	178.311
3272.312	71.061	177.981
3319.909	71.121	175.814
3368.198	70.793	174.279
3417.190	70.601	175.075
3466.894	70.687	174.976
3517.321	70.638	173.773
3568.482	70.580	173.563
3620.387	70.701	172.156
3673.046	70.544	169.225
3726.472	70.155	168.032
3780.675	69.976	167.961
3835.666	69.751	166.313
3891.457	69.310	166.071
3948.060	69.082	167.088
4005.486	68.849	167.326
4063.747	68.587	168.207
4122.855	68.494	169.166
4182.824	68.317	168.927
4243.664	68.062	169.951
4305.390	67.978	170.812
4368.013	67.692	171.693
4431.547	67.560	174.195
4496.005	67.528	175.591
4561.401	67.367	177.765
4627.749	67.439	-179.789
4695.061	67.577	-178.178
4763.352	67.768	-176.268
4832.637	67.999	-175.415
4902.929	68.193	-174.972
4974.244	68.375	-175.030
5046.596	68.485	-175.052
5120.000	68.588	-175.301
5194.472	68.640	-175.659
5270.027	68.689	-175.827
5346.682	68.670	-176.046
5424.451	68.627	-175.615
5503.352	68.660	-174.795
5583.399	68.715	-174.193
5664.612	68.788	-173.220
5747.006	68.916	-172.456
5830.598	69.040	-171.648
5915.406	69.266	-170.994
6001.447	69.522	-170.914
6088.740	69.776	-171.226
6177.303	70.023	-172.116
6267.154	70.203	-173.722
6358.312	70.293	-175.571
6450.796	70.257	-177.804
6544.625	70.091	-179.546
6639.818	69.843	179.043
6736.397	69.551	178.370
6834.380	69.230	178.346
6933.789	68.889	178.945
7034.643	68.615	-179.471
7136.964	68.400	-177.100
7240.773	68.358	-174.650
7346.093	68.454	-172.639
7452.944	68.557	-171.350
7561.350	68.648	-170.682
7671.332	68.677	-169.885
7782.915	68.644	-168.802
7896.120	68.677	-167.152
8010.971	68.865	-165.334
8127.493	69.180	-164.311
8245.711	69.482	-164.660
8365.647	69.712	-165.823
8487.328	69.790	-167.396
8610.779	69.715	-168.815
8736.026	69.553	-169.414
8863.095	69.404	-169.394
8992.011	69.304	-169.218
9122.803	69.176	-169.316
9255.497	68.996	-168.694
9390.121	68.951	-167.896
9526.704	68.864	-168.394
9665.273	68.487	-168.837
9805.857	68.021	-167.120
9948.487	67.873	-164.914
